	D:\RTS 2.0\Data\Walker, Alex_AW\2026-04-02_\DJ 1.c3d	D:\RTS 2.0\Data\Walker, Alex_AW\2026-04-02_\DJ 1.c3d	D:\RTS 2.0\Data\Walker, Alex_AW\2026-04-02_\DJ 1.c3d	D:\RTS 2.0\Data\Walker, Alex_AW\2026-04-02_\DJ 1.c3d	D:\RTS 2.0\Data\Walker, Alex_AW\2026-04-02_\DJ 1.c3d	D:\RTS 2.0\Data\Walker, Alex_AW\2026-04-02_\DJ 1.c3d	D:\RTS 2.0\Data\Walker, Alex_AW\2026-04-02_\DJ 2.c3d	D:\RTS 2.0\Data\Walker, Alex_AW\2026-04-02_\DJ 2.c3d	D:\RTS 2.0\Data\Walker, Alex_AW\2026-04-02_\DJ 2.c3d	D:\RTS 2.0\Data\Walker, Alex_AW\2026-04-02_\DJ 2.c3d	D:\RTS 2.0\Data\Walker, Alex_AW\2026-04-02_\DJ 2.c3d	D:\RTS 2.0\Data\Walker, Alex_AW\2026-04-02_\DJ 2.c3d	D:\RTS 2.0\Data\Walker, Alex_AW\2026-04-02_\DJ 3.c3d	D:\RTS 2.0\Data\Walker, Alex_AW\2026-04-02_\DJ 3.c3d	D:\RTS 2.0\Data\Walker, Alex_AW\2026-04-02_\DJ 3.c3d	D:\RTS 2.0\Data\Walker, Alex_AW\2026-04-02_\DJ 3.c3d	D:\RTS 2.0\Data\Walker, Alex_AW\2026-04-02_\DJ 3.c3d	D:\RTS 2.0\Data\Walker, Alex_AW\2026-04-02_\DJ 3.c3d
	FP1	FP1	FP1	FP2	FP2	FP2	FP1	FP1	FP1	FP2	FP2	FP2	FP1	FP1	FP1	FP2	FP2	FP2
	FORCE	FORCE	FORCE	FORCE	FORCE	FORCE	FORCE	FORCE	FORCE	FORCE	FORCE	FORCE	FORCE	FORCE	FORCE	FORCE	FORCE	FORCE
	PROCESSED	PROCESSED	PROCESSED	PROCESSED	PROCESSED	PROCESSED	PROCESSED	PROCESSED	PROCESSED	PROCESSED	PROCESSED	PROCESSED	PROCESSED	PROCESSED	PROCESSED	PROCESSED	PROCESSED	PROCESSED
ITEM	X	Y	Z	X	Y	Z	X	Y	Z	X	Y	Z	X	Y	Z	X	Y	Z
1	8.6	-24.7	38.4	-4.3	-19.9	29.4	2.7	-12.3	-5.6	0.9	-5.3	-17.7	8.1	-22.3	27.1	-6.0	-10.6	19.9
2	9.5	-27.1	44.4	-5.0	-21.9	34.5	3.3	-13.9	-1.6	0.4	-6.2	-14.7	9.0	-24.3	32.9	-6.7	-11.8	24.1
3	10.5	-29.5	50.8	-5.7	-23.9	40.0	4.0	-15.6	2.5	-0.0	-7.2	-11.5	9.9	-26.3	38.9	-7.6	-13.0	28.5
4	11.4	-32.0	57.5	-6.5	-25.9	45.7	4.7	-17.3	7.0	-0.5	-8.2	-8.1	10.9	-28.5	45.3	-8.4	-14.3	33.1
5	12.5	-34.6	64.5	-7.3	-28.1	51.7	5.4	-19.2	11.6	-1.1	-9.3	-4.5	11.9	-30.7	52.0	-9.3	-15.6	38.0
6	13.5	-37.3	71.9	-8.1	-30.4	58.1	6.1	-21.2	16.6	-1.6	-10.5	-0.7	12.9	-33.0	59.0	-10.3	-17.0	43.1
7	14.6	-40.2	79.6	-9.0	-32.7	64.7	6.9	-23.3	21.8	-2.2	-11.7	3.4	14.0	-35.4	66.4	-11.2	-18.5	48.4
8	15.8	-43.1	87.7	-9.9	-35.1	71.7	7.7	-25.4	27.2	-2.9	-13.0	7.7	15.1	-37.9	74.0	-12.2	-20.0	54.0
9	17.0	-46.1	96.1	-10.9	-37.7	79.0	8.6	-27.7	33.0	-3.6	-14.4	12.3	16.3	-40.5	82.0	-13.3	-21.6	59.8
10	18.2	-49.3	104.9	-11.9	-40.3	86.6	9.5	-30.1	39.0	-4.3	-15.8	17.1	17.5	-43.1	90.3	-14.4	-23.2	65.9
11	19.5	-52.5	114.0	-13.0	-43.0	94.5	10.4	-32.5	45.3	-5.0	-17.3	22.2	18.7	-45.8	99.0	-15.5	-24.9	72.2
12	20.8	-55.9	123.5	-14.0	-45.8	102.8	11.4	-35.1	51.9	-5.8	-18.9	27.5	20.0	-48.7	108.0	-16.7	-26.6	78.8
13	22.1	-59.3	133.4	-15.2	-48.6	111.4	12.4	-37.8	58.8	-6.7	-20.6	33.2	21.3	-51.6	117.3	-17.9	-28.4	85.6
14	23.5	-62.8	143.7	-16.4	-51.6	120.4	13.4	-40.6	66.0	-7.5	-22.3	39.1	22.7	-54.5	127.0	-19.1	-30.3	92.7
15	25.0	-66.5	154.3	-17.6	-54.6	129.7	14.5	-43.5	73.5	-8.5	-24.2	45.3	24.0	-57.6	137.1	-20.4	-32.2	100.0
16	26.4	-70.2	165.3	-18.9	-57.7	139.3	15.6	-46.5	81.3	-9.4	-26.1	51.8	25.5	-60.7	147.4	-21.7	-34.1	107.6
17	27.9	-74.0	176.6	-20.2	-60.9	149.3	16.8	-49.6	89.5	-10.4	-28.0	58.6	26.9	-63.9	158.2	-23.1	-36.1	115.4
18	29.5	-77.9	188.3	-21.5	-64.1	159.6	18.0	-52.8	98.0	-11.5	-30.1	65.8	28.4	-67.2	169.2	-24.5	-38.2	123.5
19	31.0	-81.8	200.4	-22.9	-67.4	170.2	19.2	-56.1	106.8	-12.6	-32.2	73.2	29.9	-70.5	180.6	-25.9	-40.3	131.8
20	32.6	-85.9	212.8	-24.3	-70.8	181.1	20.4	-59.5	115.9	-13.8	-34.5	81.0	31.5	-73.9	192.3	-27.4	-42.5	140.4
21	34.3	-90.0	225.5	-25.8	-74.3	192.4	21.7	-63.0	125.3	-15.0	-36.8	89.1	33.0	-77.3	204.4	-28.8	-44.7	149.3
22	35.9	-94.1	238.6	-27.3	-77.7	204.0	23.1	-66.6	135.1	-16.2	-39.1	97.6	34.6	-80.8	216.7	-30.4	-46.9	158.3
23	37.6	-98.4	252.0	-28.9	-81.3	215.9	24.4	-70.3	145.2	-17.5	-41.6	106.3	36.2	-84.3	229.4	-31.9	-49.2	167.6
24	39.3	-102.6	265.7	-30.5	-84.9	228.1	25.8	-74.1	155.7	-18.8	-44.1	115.4	37.9	-87.8	242.3	-33.5	-51.5	177.1
25	41.1	-106.9	279.7	-32.1	-88.5	240.5	27.2	-77.9	166.4	-20.2	-46.7	124.9	39.5	-91.4	255.6	-35.1	-53.8	186.8
26	42.8	-111.3	294.0	-33.8	-92.1	253.3	28.7	-81.9	177.5	-21.7	-49.4	134.7	41.2	-95.0	269.1	-36.7	-56.2	196.7
27	44.6	-115.6	308.5	-35.4	-95.8	266.3	30.2	-85.9	188.9	-23.2	-52.1	144.8	42.8	-98.6	282.8	-38.3	-58.5	206.8
28	46.3	-119.9	323.3	-37.2	-99.5	279.5	31.7	-90.0	200.6	-24.7	-55.0	155.3	44.5	-102.2	296.8	-40.0	-60.9	217.1
29	48.1	-124.3	338.3	-38.9	-103.1	293.0	33.2	-94.1	212.5	-26.3	-57.8	166.1	46.2	-105.8	311.0	-41.6	-63.4	227.6
30	49.9	-128.6	353.4	-40.7	-106.8	306.6	34.7	-98.3	224.8	-27.9	-60.8	177.2	47.9	-109.3	325.4	-43.3	-65.8	238.1
31	51.6	-132.9	368.7	-42.4	-110.5	320.4	36.3	-102.6	237.4	-29.5	-63.8	188.7	49.5	-112.8	339.9	-45.0	-68.2	248.9
32	53.4	-137.1	384.2	-44.2	-114.1	334.4	37.9	-106.8	250.2	-31.3	-66.8	200.4	51.2	-116.3	354.6	-46.7	-70.6	259.7
33	55.1	-141.3	399.7	-46.1	-117.6	348.5	39.5	-111.2	263.3	-33.0	-69.9	212.5	52.8	-119.7	369.4	-48.3	-73.0	270.6
34	56.8	-145.4	415.3	-47.9	-121.1	362.7	41.1	-115.5	276.6	-34.8	-73.0	224.9	54.4	-123.1	384.2	-50.0	-75.3	281.5
35	58.5	-149.4	430.9	-49.7	-124.6	376.9	42.7	-119.8	290.1	-36.6	-76.2	237.6	55.9	-126.3	399.2	-51.6	-77.7	292.5
36	60.2	-153.4	446.5	-51.5	-127.9	391.2	44.3	-124.2	303.8	-38.5	-79.4	250.6	57.5	-129.5	414.1	-53.2	-79.9	303.5
37	61.8	-157.1	462.1	-53.3	-131.1	405.5	45.9	-128.5	317.7	-40.4	-82.6	263.9	59.0	-132.5	429.0	-54.8	-82.2	314.5
38	63.3	-160.8	477.6	-55.1	-134.3	419.7	47.5	-132.8	331.7	-42.3	-85.9	277.4	60.4	-135.5	443.8	-56.4	-84.4	325.4
39	64.8	-164.3	492.9	-56.9	-137.2	433.8	49.1	-137.0	345.8	-44.3	-89.1	291.1	61.8	-138.3	458.6	-57.9	-86.5	336.2
40	66.3	-167.6	508.1	-58.7	-140.1	447.8	50.6	-141.2	360.1	-46.2	-92.4	305.0	63.1	-140.9	473.2	-59.4	-88.5	347.0
41	67.7	-170.7	523.1	-60.4	-142.7	461.6	52.1	-145.3	374.4	-48.2	-95.6	319.2	64.3	-143.4	487.7	-60.9	-90.4	357.6
42	69.0	-173.7	537.9	-62.2	-145.2	475.2	53.7	-149.3	388.8	-50.2	-98.8	333.5	65.5	-145.8	502.0	-62.3	-92.3	368.0
43	70.3	-176.5	552.4	-63.8	-147.5	488.6	55.1	-153.2	403.1	-52.3	-102.0	348.0	66.6	-147.9	516.1	-63.6	-94.0	378.3
44	71.4	-179.1	566.6	-65.5	-149.6	501.7	56.6	-157.0	417.5	-54.3	-105.2	362.5	67.7	-150.0	529.9	-64.9	-95.6	388.3
45	72.5	-181.4	580.6	-67.1	-151.5	514.5	57.9	-160.7	431.7	-56.3	-108.3	377.2	68.6	-151.8	543.5	-66.1	-97.2	398.1
46	73.6	-183.6	594.3	-68.6	-153.2	527.0	59.3	-164.2	445.9	-58.4	-111.3	391.9	69.5	-153.6	556.8	-67.3	-98.6	407.7
47	74.5	-185.6	607.6	-70.1	-154.6	539.2	60.6	-167.6	460.0	-60.4	-114.2	406.6	70.3	-155.1	569.8	-68.4	-99.9	417.0
48	75.4	-187.4	620.7	-71.6	-155.9	550.9	61.8	-170.8	473.9	-62.4	-117.1	421.3	70.9	-156.5	582.6	-69.4	-101.1	426.0
49	76.1	-189.1	633.4	-72.9	-156.9	562.3	63.0	-173.9	487.6	-64.4	-119.8	435.9	71.5	-157.8	595.0	-70.3	-102.2	434.7
50	76.8	-190.6	645.8	-74.2	-157.8	573.3	64.0	-176.7	501.2	-66.3	-122.4	450.5	72.1	-159.0	607.1	-71.2	-103.2	443.1
51	77.4	-191.9	657.9	-75.5	-158.4	584.0	65.1	-179.4	514.5	-68.3	-124.9	464.9	72.5	-160.1	618.9	-72.0	-104.1	451.2
52	78.0	-193.1	669.6	-76.6	-158.9	594.2	66.0	-181.9	527.5	-70.2	-127.3	479.2	72.8	-161.1	630.4	-72.7	-104.9	458.9
53	78.5	-194.2	681.0	-77.7	-159.2	604.0	66.9	-184.1	540.4	-72.0	-129.5	493.2	73.1	-162.1	641.5	-73.3	-105.7	466.4
54	78.8	-195.2	692.1	-78.7	-159.4	613.5	67.7	-186.2	552.9	-73.8	-131.6	507.1	73.2	-162.9	652.4	-73.9	-106.4	473.6
55	79.2	-196.1	702.9	-79.7	-159.4	622.5	68.4	-188.2	565.2	-75.6	-133.4	520.6	73.4	-163.8	662.9	-74.3	-107.1	480.5
56	79.5	-196.9	713.3	-80.5	-159.3	631.2	69.0	-189.9	577.2	-77.3	-135.2	533.9	73.4	-164.6	673.0	-74.7	-107.7	487.1
57	79.7	-197.7	723.4	-81.3	-159.1	639.5	69.5	-191.5	588.9	-78.9	-136.7	546.9	73.4	-165.4	682.9	-75.0	-108.4	493.3
58	79.8	-198.4	733.2	-82.0	-158.9	647.4	70.0	-193.0	600.4	-80.5	-138.1	559.5	73.3	-166.2	692.4	-75.2	-109.0	499.3
59	79.9	-199.0	742.6	-82.7	-158.5	655.0	70.4	-194.3	611.6	-82.0	-139.4	571.8	73.1	-167.0	701.5	-75.4	-109.7	505.0
60	80.0	-199.6	751.7	-83.2	-158.1	662.2	70.6	-195.5	622.5	-83.4	-140.5	583.8	72.9	-167.8	710.3	-75.4	-110.4	510.4
61	80.0	-200.1	760.4	-83.7	-157.7	669.1	70.9	-196.5	633.2	-84.7	-141.5	595.4	72.6	-168.6	718.7	-75.4	-111.1	515.6
62	80.0	-200.6	768.8	-84.2	-157.2	675.6	71.0	-197.5	643.6	-85.9	-142.3	606.6	72.3	-169.4	726.8	-75.4	-111.8	520.4
63	79.9	-201.0	776.9	-84.6	-156.7	681.8	71.0	-198.4	653.7	-87.1	-143.0	617.4	72.0	-170.3	734.5	-75.2	-112.6	525.0
64	79.8	-201.5	784.5	-84.9	-156.2	687.6	71.0	-199.2	663.6	-88.1	-143.7	627.8	71.6	-171.1	741.8	-75.0	-113.4	529.4
65	79.7	-201.9	791.8	-85.1	-155.7	693.1	71.0	-199.9	673.3	-89.0	-144.2	637.9	71.2	-172.0	748.8	-74.8	-114.2	533.5
66	79.6	-202.3	798.7	-85.3	-155.1	698.3	70.8	-200.6	682.7	-89.9	-144.7	647.6	70.8	-173.0	755.3	-74.5	-115.1	537.4
67	79.4	-202.6	805.2	-85.5	-154.6	703.2	70.6	-201.2	691.9	-90.6	-145.1	656.9	70.3	-173.9	761.4	-74.1	-116.0	541.0
68	79.2	-202.9	811.4	-85.5	-154.0	707.7	70.4	-201.7	700.8	-91.3	-145.5	665.8	69.8	-174.9	767.1	-73.7	-117.0	544.4
69	78.9	-203.2	817.0	-85.6	-153.4	712.0	70.0	-202.2	709.5	-91.8	-145.8	674.3	69.3	-175.9	772.4	-73.2	-118.0	547.6
70	78.7	-203.5	822.3	-85.5	-152.9	715.9	69.7	-202.7	718.0	-92.3	-146.1	682.5	68.8	-176.9	777.3	-72.7	-119.1	550.6
71	78.4	-203.8	827.2	-85.5	-152.3	719.5	69.3	-203.1	726.2	-92.7	-146.4	690.3	68.3	-177.9	781.7	-72.1	-120.1	553.3
72	78.2	-204.1	831.5	-85.3	-151.7	722.8	68.8	-203.4	734.2	-92.9	-146.6	697.7	67.8	-178.9	785.6	-71.5	-121.2	555.9
73	77.9	-204.3	835.5	-85.2	-151.1	725.8	68.3	-203.8	742.0	-93.1	-146.9	704.7	67.3	-179.9	789.2	-70.9	-122.4	558.2
74	77.6	-204.5	839.0	-84.9	-150.6	728.5	67.8	-204.0	749.5	-93.2	-147.1	711.3	66.8	-180.9	792.2	-70.2	-123.5	560.4
75	77.3	-204.8	842.0	-84.7	-150.0	730.9	67.2	-204.3	756.8	-93.3	-147.4	717.6	66.3	-182.0	794.9	-69.4	-124.6	562.4
76	77.1	-205.0	844.6	-84.4	-149.4	733.0	66.6	-204.5	763.8	-93.2	-147.6	723.5	65.9	-183.0	797.1	-68.7	-125.8	564.2
77	76.8	-205.2	846.7	-84.0	-148.8	734.8	66.0	-204.7	770.6	-93.1	-147.9	729.1	65.4	-184.0	798.9	-67.9	-126.9	565.9
78	76.5	-205.3	848.4	-83.7	-148.2	736.3	65.4	-204.8	777.1	-92.9	-148.1	734.2	65.0	-184.9	800.2	-67.0	-128.0	567.4
79	76.3	-205.5	849.6	-83.2	-147.6	737.6	64.7	-204.9	783.4	-92.7	-148.4	739.1	64.5	-185.9	801.2	-66.2	-129.1	568.7
80	76.1	-205.7	850.4	-82.8	-146.9	738.5	64.0	-204.9	789.4	-92.4	-148.6	743.5	64.1	-186.8	801.8	-65.3	-130.1	570.0
81	75.9	-205.8	850.8	-82.3	-146.3	739.2	63.3	-205.0	795.1	-92.0	-148.9	747.6	63.7	-187.7	801.9	-64.4	-131.1	571.0
82	75.7	-206.0	850.7	-81.9	-145.6	739.6	62.6	-204.9	800.5	-91.6	-149.1	751.4	63.4	-188.6	801.8	-63.5	-132.1	572.0
83	75.5	-206.1	850.2	-81.4	-145.0	739.8	61.9	-204.9	805.7	-91.2	-149.3	754.8	63.0	-189.4	801.2	-62.5	-133.0	572.9
84	75.3	-206.1	849.3	-80.8	-144.3	739.7	61.2	-204.8	810.5	-90.7	-149.6	757.8	62.7	-190.1	800.4	-61.6	-133.8	573.6
85	75.1	-206.2	848.1	-80.3	-143.6	739.3	60.5	-204.7	815.1	-90.2	-149.8	760.6	62.3	-190.8	799.2	-60.6	-134.6	574.3
86	75.0	-206.2	846.5	-79.8	-142.9	738.7	59.8	-204.6	819.3	-89.7	-150.0	762.9	62.0	-191.5	797.8	-59.7	-135.3	574.9
87	74.8	-206.2	844.5	-79.3	-142.2	737.9	59.1	-204.4	823.2	-89.1	-150.2	765.0	61.7	-192.1	796.1	-58.7	-135.9	575.5
88	74.7	-206.1	842.2	-78.7	-141.4	736.9	58.5	-204.2	826.7	-88.6	-150.4	766.7	61.4	-192.6	794.1	-57.7	-136.5	575.9
89	74.5	-206.0	839.7	-78.2	-140.7	735.7	57.8	-204.0	830.0	-88.0	-150.6	768.1	61.1	-193.0	792.0	-56.7	-136.9	576.4
90	74.4	-205.8	836.8	-77.7	-139.9	734.2	57.2	-203.7	832.8	-87.5	-150.7	769.2	60.8	-193.4	789.6	-55.8	-137.3	576.8
91	74.3	-205.6	833.7	-77.1	-139.1	732.6	56.6	-203.5	835.3	-86.9	-150.9	770.0	60.5	-193.6	787.1	-54.8	-137.6	577.1
92	74.2	-205.3	830.4	-76.6	-138.2	730.8	56.1	-203.2	837.5	-86.4	-151.0	770.5	60.2	-193.8	784.4	-53.8	-137.8	577.5
93	74.1	-205.0	826.9	-76.1	-137.3	728.9	55.5	-202.9	839.3	-85.8	-151.1	770.8	59.9	-193.9	781.6	-52.9	-137.8	577.9
94	73.9	-204.6	823.2	-75.6	-136.4	726.8	55.0	-202.6	840.7	-85.3	-151.2	770.7	59.6	-193.9	778.7	-51.9	-137.8	578.2
95	73.8	-204.1	819.3	-75.2	-135.5	724.5	54.6	-202.3	841.8	-84.9	-151.3	770.4	59.3	-193.8	775.7	-51.0	-137.7	578.6
96	73.7	-203.5	815.3	-74.7	-134.5	722.1	54.1	-202.0	842.5	-84.4	-151.4	769.8	58.9	-193.6	772.6	-50.1	-137.5	579.0
97	73.6	-202.9	811.2	-74.3	-133.5	719.7	53.7	-201.6	842.9	-84.0	-151.4	768.9	58.6	-193.3	769.4	-49.2	-137.1	579.4
98	73.4	-202.2	807.0	-73.9	-132.5	717.1	53.3	-201.3	842.9	-83.5	-151.4	767.8	58.2	-192.8	766.3	-48.4	-136.7	579.8
99	73.3	-201.4	802.7	-73.5	-131.4	714.4	52.9	-200.9	842.6	-83.2	-151.4	766.5	57.8	-192.3	763.1	-47.6	-136.1	580.3
100	73.2	-200.5	798.4	-73.1	-130.3	711.6	52.6	-200.6	841.9	-82.8	-151.3	765.0	57.4	-191.7	759.9	-46.7	-135.5	580.8
101	73.0	-199.6	794.0	-72.8	-129.2	708.8	52.3	-200.2	840.9	-82.5	-151.2	763.2	57.0	-191.0	756.8	-46.0	-134.7	581.4
102	72.9	-198.5	789.7	-72.5	-128.0	706.0	52.0	-199.8	839.6	-82.2	-151.1	761.3	56.6	-190.2	753.7	-45.2	-133.8	582.0
103	72.7	-197.4	785.3	-72.2	-126.8	703.1	51.8	-199.4	838.0	-81.9	-150.9	759.2	56.1	-189.3	750.6	-44.5	-132.9	582.7
104	72.6	-196.2	781.0	-71.9	-125.5	700.2	51.6	-199.0	836.1	-81.7	-150.7	756.9	55.7	-188.3	747.6	-43.9	-131.8	583.5
105	72.4	-195.0	776.7	-71.7	-124.2	697.3	51.3	-198.6	833.9	-81.5	-150.5	754.5	55.2	-187.1	744.6	-43.2	-130.6	584.3
106	72.2	-193.6	772.5	-71.5	-122.9	694.4	51.2	-198.2	831.4	-81.3	-150.2	751.9	54.7	-185.9	741.8	-42.6	-129.4	585.2
107	72.1	-192.2	768.3	-71.4	-121.6	691.5	51.0	-197.8	828.8	-81.1	-149.8	749.1	54.2	-184.6	739.0	-42.1	-128.0	586.1
108	71.9	-190.7	764.2	-71.2	-120.2	688.6	50.8	-197.3	825.9	-81.0	-149.4	746.3	53.6	-183.3	736.3	-41.6	-126.6	587.2
109	71.7	-189.2	760.2	-71.2	-118.8	685.8	50.7	-196.8	822.7	-80.9	-148.9	743.4	53.1	-181.8	733.7	-41.1	-125.1	588.3
110	71.5	-187.6	756.3	-71.1	-117.3	683.0	50.6	-196.4	819.5	-80.8	-148.4	740.3	52.5	-180.3	731.2	-40.7	-123.5	589.4
111	71.3	-185.9	752.4	-71.1	-115.9	680.2	50.5	-195.9	816.0	-80.8	-147.8	737.2	52.0	-178.6	728.9	-40.3	-121.8	590.6
112	71.1	-184.1	748.7	-71.1	-114.4	677.5	50.4	-195.3	812.4	-80.7	-147.2	734.0	51.4	-176.9	726.6	-40.0	-120.1	591.9
113	70.8	-182.3	745.1	-71.1	-112.9	674.9	50.3	-194.8	808.6	-80.7	-146.5	730.7	50.8	-175.2	724.4	-39.8	-118.3	593.3
114	70.6	-180.5	741.6	-71.1	-111.3	672.4	50.3	-194.2	804.8	-80.7	-145.8	727.5	50.2	-173.4	722.4	-39.5	-116.4	594.7
115	70.4	-178.6	738.2	-71.2	-109.8	669.9	50.2	-193.6	800.8	-80.7	-145.0	724.1	49.6	-171.5	720.4	-39.4	-114.5	596.2
116	70.1	-176.6	734.9	-71.3	-108.2	667.5	50.2	-193.0	796.8	-80.7	-144.1	720.8	49.0	-169.5	718.6	-39.3	-112.6	597.7
117	69.9	-174.6	731.7	-71.4	-106.6	665.3	50.1	-192.4	792.7	-80.8	-143.2	717.4	48.3	-167.6	716.9	-39.2	-110.6	599.3
118	69.6	-172.6	728.6	-71.6	-105.0	663.1	50.1	-191.7	788.5	-80.9	-142.2	714.1	47.7	-165.5	715.2	-39.2	-108.6	600.9
119	69.4	-170.6	725.7	-71.8	-103.4	661.0	50.0	-191.0	784.3	-80.9	-141.2	710.7	47.0	-163.4	713.7	-39.2	-106.5	602.5
120	69.1	-168.5	722.8	-71.9	-101.8	658.9	50.0	-190.3	780.1	-81.0	-140.1	707.4	46.4	-161.3	712.2	-39.3	-104.4	604.2
121	68.8	-166.4	720.1	-72.1	-100.1	657.0	50.0	-189.5	775.9	-81.1	-138.9	704.1	45.8	-159.2	710.9	-39.4	-102.3	605.9
122	68.5	-164.2	717.4	-72.4	-98.5	655.2	49.9	-188.7	771.8	-81.3	-137.7	700.8	45.1	-157.0	709.6	-39.5	-100.2	607.6
123	68.2	-162.1	714.8	-72.6	-96.8	653.5	49.9	-187.9	767.6	-81.4	-136.4	697.6	44.4	-154.8	708.4	-39.7	-98.1	609.3
124	67.9	-159.9	712.4	-72.8	-95.2	651.9	49.8	-187.0	763.5	-81.5	-135.1	694.4	43.8	-152.6	707.3	-39.9	-96.0	611.1
125	67.6	-157.7	710.0	-73.1	-93.5	650.4	49.8	-186.1	759.4	-81.7	-133.7	691.3	43.1	-150.4	706.2	-40.2	-93.8	612.8
126	67.2	-155.6	707.7	-73.3	-91.8	649.0	49.8	-185.2	755.3	-81.9	-132.3	688.3	42.5	-148.2	705.3	-40.5	-91.7	614.5
127	66.9	-153.4	705.4	-73.6	-90.2	647.8	49.7	-184.2	751.3	-82.0	-130.9	685.3	41.8	-145.9	704.3	-40.8	-89.5	616.3
128	66.6	-151.2	703.3	-73.8	-88.5	646.6	49.7	-183.2	747.4	-82.2	-129.3	682.4	41.2	-143.7	703.5	-41.1	-87.4	618.0
129	66.2	-149.0	701.2	-74.1	-86.8	645.5	49.6	-182.2	743.6	-82.4	-127.8	679.6	40.5	-141.4	702.7	-41.5	-85.2	619.7
130	65.8	-146.9	699.2	-74.3	-85.2	644.5	49.6	-181.1	739.8	-82.6	-126.1	676.9	39.9	-139.2	701.9	-41.9	-83.1	621.4
131	65.4	-144.7	697.2	-74.6	-83.5	643.6	49.5	-180.0	736.1	-82.8	-124.5	674.3	39.2	-137.0	701.2	-42.3	-81.0	623.1
132	65.1	-142.5	695.3	-74.8	-81.9	642.7	49.5	-178.8	732.6	-83.0	-122.8	671.8	38.6	-134.8	700.5	-42.7	-78.9	624.7
133	64.6	-140.4	693.4	-75.1	-80.3	642.0	49.4	-177.7	729.1	-83.2	-121.0	669.3	37.9	-132.6	699.9	-43.2	-76.9	626.3
134	64.2	-138.3	691.6	-75.3	-78.7	641.4	49.3	-176.4	725.7	-83.4	-119.3	667.0	37.3	-130.4	699.3	-43.6	-74.8	627.9
135	63.8	-136.2	689.8	-75.5	-77.1	640.8	49.3	-175.2	722.3	-83.6	-117.4	664.8	36.6	-128.2	698.8	-44.1	-72.8	629.5
136	63.4	-134.1	688.1	-75.7	-75.5	640.4	49.2	-173.9	719.1	-83.8	-115.6	662.6	36.0	-126.1	698.2	-44.5	-70.7	631.0
137	62.9	-132.0	686.4	-75.9	-73.9	640.0	49.1	-172.6	716.0	-84.0	-113.7	660.6	35.4	-123.9	697.8	-45.0	-68.7	632.5
138	62.4	-129.9	684.8	-76.1	-72.4	639.6	49.1	-171.2	713.0	-84.2	-111.8	658.6	34.7	-121.8	697.3	-45.5	-66.8	634.0
139	61.9	-127.9	683.2	-76.3	-70.8	639.4	49.0	-169.8	710.1	-84.4	-109.9	656.8	34.1	-119.8	696.9	-45.9	-64.8	635.4
140	61.4	-125.9	681.7	-76.5	-69.3	639.2	49.0	-168.4	707.3	-84.6	-107.9	655.1	33.5	-117.7	696.6	-46.4	-62.9	636.9
141	60.9	-123.9	680.1	-76.7	-67.9	639.1	48.9	-167.0	704.6	-84.7	-105.9	653.4	32.9	-115.7	696.2	-46.8	-60.9	638.3
142	60.4	-121.9	678.7	-76.8	-66.4	639.0	48.9	-165.5	702.0	-84.9	-103.9	651.9	32.2	-113.7	695.9	-47.3	-59.0	639.7
143	59.8	-119.9	677.2	-77.0	-65.0	639.0	48.8	-164.1	699.4	-85.1	-101.9	650.4	31.6	-111.7	695.7	-47.7	-57.1	641.0
144	59.2	-118.0	675.8	-77.1	-63.5	639.1	48.8	-162.6	697.0	-85.3	-99.8	649.0	31.0	-109.7	695.5	-48.1	-55.3	642.4
145	58.6	-116.1	674.5	-77.2	-62.1	639.1	48.8	-161.0	694.7	-85.4	-97.8	647.8	30.3	-107.8	695.3	-48.5	-53.4	643.7
146	58.0	-114.2	673.1	-77.3	-60.8	639.3	48.7	-159.5	692.4	-85.6	-95.7	646.6	29.7	-105.9	695.1	-48.9	-51.6	645.1
147	57.4	-112.3	671.9	-77.4	-59.4	639.5	48.7	-157.9	690.3	-85.7	-93.6	645.4	29.1	-104.0	695.1	-49.3	-49.8	646.4
148	56.7	-110.5	670.6	-77.5	-58.1	639.7	48.7	-156.3	688.2	-85.8	-91.6	644.4	28.4	-102.2	695.0	-49.7	-48.0	647.8
149	56.0	-108.6	669.4	-77.6	-56.8	639.9	48.7	-154.7	686.2	-86.0	-89.5	643.4	27.8	-100.4	695.0	-50.1	-46.2	649.1
150	55.3	-106.8	668.3	-77.7	-55.5	640.2	48.7	-153.1	684.3	-86.1	-87.4	642.4	27.1	-98.5	695.0	-50.4	-44.4	650.5
151	54.6	-105.0	667.2	-77.7	-54.3	640.5	48.7	-151.5	682.5	-86.2	-85.3	641.6	26.4	-96.8	695.1	-50.7	-42.6	651.8
152	53.8	-103.3	666.1	-77.8	-53.0	640.8	48.7	-149.9	680.8	-86.3	-83.2	640.8	25.8	-95.0	695.2	-51.0	-40.8	653.2
153	53.1	-101.5	665.1	-77.8	-51.8	641.1	48.7	-148.3	679.1	-86.3	-81.1	640.0	25.1	-93.3	695.4	-51.3	-39.0	654.6
154	52.3	-99.8	664.2	-77.9	-50.6	641.4	48.7	-146.6	677.5	-86.4	-79.1	639.3	24.4	-91.6	695.7	-51.6	-37.3	656.0
155	51.4	-98.0	663.3	-77.9	-49.5	641.8	48.7	-145.0	675.9	-86.5	-77.0	638.6	23.7	-89.9	696.0	-51.8	-35.5	657.5
156	50.6	-96.3	662.4	-77.9	-48.3	642.2	48.7	-143.3	674.4	-86.5	-74.9	637.9	23.0	-88.2	696.3	-52.0	-33.7	659.0
157	49.7	-94.7	661.7	-77.9	-47.2	642.5	48.7	-141.7	673.0	-86.5	-72.9	637.3	22.2	-86.5	696.7	-52.2	-32.0	660.5
158	48.8	-93.0	660.9	-77.9	-46.1	642.9	48.7	-140.0	671.7	-86.6	-70.9	636.7	21.5	-84.9	697.2	-52.4	-30.2	662.0
159	47.9	-91.3	660.3	-77.9	-45.0	643.3	48.7	-138.4	670.4	-86.6	-68.8	636.1	20.7	-83.3	697.7	-52.6	-28.4	663.6
160	46.9	-89.7	659.7	-77.9	-43.9	643.6	48.7	-136.7	669.1	-86.5	-66.8	635.5	20.0	-81.7	698.3	-52.7	-26.7	665.2
161	45.9	-88.1	659.1	-77.8	-42.9	644.0	48.7	-135.1	668.0	-86.5	-64.9	634.9	19.2	-80.1	699.0	-52.8	-24.9	666.8
162	44.9	-86.5	658.6	-77.8	-41.8	644.4	48.7	-133.4	666.8	-86.5	-62.9	634.4	18.4	-78.5	699.7	-52.9	-23.1	668.5
163	43.9	-84.9	658.2	-77.7	-40.8	644.7	48.7	-131.8	665.7	-86.4	-61.0	633.8	17.6	-77.0	700.5	-53.0	-21.3	670.2
164	42.8	-83.3	657.9	-77.7	-39.8	645.1	48.7	-130.1	664.7	-86.3	-59.1	633.2	16.8	-75.5	701.3	-53.0	-19.6	672.0
165	41.8	-81.7	657.6	-77.6	-38.8	645.5	48.7	-128.5	663.8	-86.3	-57.2	632.7	15.9	-73.9	702.3	-53.1	-17.8	673.8
166	40.7	-80.2	657.4	-77.5	-37.9	645.8	48.6	-126.9	662.8	-86.1	-55.4	632.1	15.1	-72.4	703.3	-53.1	-16.0	675.6
167	39.5	-78.6	657.2	-77.4	-36.9	646.2	48.6	-125.3	662.0	-86.0	-53.6	631.5	14.2	-71.0	704.3	-53.1	-14.2	677.6
